<Actel_Data_File>
    <format name="NVM File" version="01.00.00"/>
    <header>
        <die>
            M2S010
        </die>
        <family>
            SmartFusion2
        </family>
        <module>
            
        </module>
        <package>
            144 TQ
        </package>
        <version>
            2021.2.0.11
        </version>
    </header>
    <nvm>
        <region name="SPU_Program" address="0x000000" retrieveAddressFromFile="false" size="14112" format="HEX" type="Data Storage" wordSize="32" numberWords="3528" memFile="C:/Users/RG/Documents/MicroController/mssSrc/Release/HERMESS-MSS.hex" memType="INTELHEX" memFileTimeStamp="1641481060" clientType="public" program="true">
            <read_protect/>
            <fabric_accessible/>
            <mss_accessible/>
            00000120910100000d2c0000810300008303000085030000870300000000
            0000000000000000000000000000890300008b030000000000008d030000
            8f03000091030000930300007d13000099130000990300009b0300009d03
            00009f030000a1030000a3030000ed0a0000090b0000a9030000ab030000
            c1230000e9230000b1030000b3030000b5030000010c0000b9030000bb03
            0000bd030000bf030000c1030000c3030000c50300004d140000f1140000
            cb030000cd030000cf030000d1030000d3030000b52a00005d2300006323
            0000692300006f230000752300007b230000e3030000e5030000e7030000
            e9030000eb030000ed030000ef030000f1030000f3030000952b0000e52b
            0000bd2b0000fb030000fd030000ff030000010400000304000005040000
            07040000090400000b0400000d0400000f04000011040000130400001504
            000017040000190400001b0400001d0400001f0400002104000023040000
            2504000027040000290400002b0400002d0400002f040000310400003304
            000000000000000000004ff0000bdff8be020068dff8b612096801f00301
            00f01c00142801d14bf0020b002901d04bf0010bbbf1000f05d0a748a749
            dff8722200f09ff8a64880470bf0020abaf1000f0cd0dff86e02dff86e12
            02680b680fb44ff000024ff0ff0302600b609d484ff000024ff001030228
            08d1dff83a120a60dff83e120a60dff832120b60012808d1dff82a120a60
            dff826120a60dff81a120b609048002809d190489049914a00f030f89048
            9149914a00f02bf891489149924a00f026f891489249dff8e22100f058f8
            bbf1000f10d08f488f49dff8d62100f04ff80bf0020abaf1000f05d00fbc
            02600b6000bfaff30080dff820020ff2030e00474ff000004ff00001dff8
            14f2fee72de9f841884225d0b2eb010200d5fee740ea010313f0030302d0
            00f01df819e04ff0000390461211f7d09a421cbff0c8f0c103f10103f8d1
            08f00f08b8f1000f08d004780c7000f1010001f10101b8f10108f6d1bde8
            f88108b54ff0000303780b7000f1010001f10101013af7d108bd884237d0
            00f00306002e14d04ff00405a5eb06044ff0080707fb06f8914669fa08f9
            002c07d080f8009069fa07f900f10100013cf5e74ff000060f46091a8846
            0911914614461546b14206d018bfa0e8340206f10106b142f8d108f00f08
            b8f1000f07d002704fea322200f10100b8f10108f4e77047fee7fee7fee7
            fee7fee7fee7fee7fee7fee7fee7fee7fee7fee7fee7fee7fee7fee7fee7
            fee7fee7fee7fee7fee7fee7fee7fee7fee7fee7fee7fee7fee7fee7fee7
            fee7fee7fee7fee7fee7fee7fee7fee7fee7fee7fee7fee7fee7fee7fee7
            fee7fee7fee7fee7fee7fee7fee7fee7fee7fee7fee7fee7fee7fee7fee7
            fee7fee7fee7fee7fee7fee7fee7fee7fee7fee7fee7fee7fee7fee7fee7
            fee7fee7fee7fee7fee7fee7fee7fee7fee7fee7fee7fee7fee770470000
            0000a2a2a2a2008003400880034010800340308003403480034038800340
            18080240000000f000200000012059260000000000000000000000000000
            0000000090010000b0040000b0040000a0360000a0360000000000208000
            002080000020600500206005002000f000201d2c00004127000000000000
            10b5054c237833b9044b13b10448aff300800123237010bd800000200000
            00007436000008b5034b1bb103490348aff3008008bd0000000084000020
            7436000001607047006870470eb503fa01f303ea020301686fea020201ea
            020141ea030101600ebd006800ea020020fa01f070470180704700887047
            0eb503fa01f303ea020301886fea020201ea020141ea030101800ebd0088
            00ea020020fa01f0704701707047007870470eb503fa01f303ea02030178
            6fea020201ea020141ea030101700ebd007800ea020020fa01f070470123
            420900f01f0003fa00f0014b43f82200704700e100e00122430900f01f00
            02fa00f0024a603342f82300704700bf00e100e0054b890003ea401300f0
            70401843012301f1007143507047e0ffff01054b890003ea401300f07040
            1843002301f1007143507047e0ffff01054b890003ea401300f070401843
            01f100714058c0b27047e0ffff012de9f0416c4e0446b0420f46904600f0
            bf806a4b984200d000be694b4ff4006123600b232371674b9a6c42f48072
            9a64654ac2f880119a6c22f48072002520689a640121057100f8085ffff7
            afff206802210830fff7aaff206829460830fff7a5ff206804211030fff7
            aeff206805211030fff7a9ff206801213430fff7a4ff206829463430fff7
            9fff206801213830fff79aff206805213030fff795ff206806213030fff7
            90ff206807213030fff78bff206803213830fff786ff2368b44283f84450
            83f8485083f84c5019d03b4b9c4216d000be236883f80c800023a760c4e9
            0433c4e90833c4e90a33c4e90c33c4e90e3384f80c80a361e3616373bde8
            f081a76001f0c2ffb4420cbf2f4b304b1d68ed00b5fbf7f5b5f5000fdad2
            2068ff2d4fead51600f10c00c5f3c71210d80721fff73bff002320680721
            037100f80c2bfff741ff206807213030fff73cffc1e7b60105f07f030721
            c6eb55069e1bfff724ff2068c5f3c7350571072100f80c2bfff729ff2068
            07213030fff716ffff2e00d900be2368f6b283f83c60a2e74ff080430360
            0a234ff480610371094b9a6c42f080029a64074ac2f880119a6c22f08002
            42e700bf08040020c8030020000001400080034000e100e0100000201400
            002010b504460068037a03f00f030c2b5fd8dfe803f0075e1120165e1b5e
            5e5e5e5e1600a36a03b900bea36a002b51d02046bde810401847636a03b9
            00be636af4e7236a03b900be236aefe7e36903b900bee369eae700212830
            fff7dafe30b1e36a03b900bee36a0bb120469847206801212830fff7cdfe
            30b1236b03b900be236b0bb120469847206802212830fff7c0fe30b1636b
            03b900be636b0bb120469847206803212830fff7b3fe30b1a36b03b900be
            a36b0bb120469847206804212830fff7a6fe28b1e36b03b900bee36bace7
            00be10bd1c4bf0b4984203d01b4a904200d000be026902b900be426902b9
            00be984202d0154b984223d106690eb34169f9b10468437b227d13434373
            930609d48369994215d1002301214361201df0bcfff768be83690025cb1a
            102b28bf10239d428269ecd0b75c0132277001358261f6e7f0bc704700bf
            08040020c80300200e4b10b59842044603d00d4b984200d000be2046fff7
            62fe206803213030fff741fe206802213430fff73cfe206800213830fff7
            37fe034b636210bd08040020c8030020b1080000154bf0b5984203d0144c
            a04200d000be01b900be02b900be984202d00f4b984218d1b9b1b2b10025
            0668437b347d2343a406fbd50f2a437394bf134610234c19e71814f801cb
            bc4286f800c0f9d1d21a1d44ead1f0bd00bf08040020c8030020104b70b5
            984219d00f4b984200d000beb1b1984215d100230a7892b10568447b2e7d
            3443b606fbd5447303f110042a700133ca5c2ab1a342f9d1eee70029ead1
            00be70bd08040020c803002003461046164a70b5934203d0154ca34200d0
            00be01b900be00b900be934202d0104a934218d1b9b150b11a685c7b127d
            d5b222435a730022ec070fd5824200d170bd1c6824788c541c685e7b247d
            0132e5b234435c73efe70020f1e71046efe708040020c8030020164b10b5
            9842044603d01548844200d000be01b900bec02a00d900be9c4202d00f4b
            9c4218d1b9b1c02a15d8216221680b7a03f03f031a430a7294f90400fff7
            67fd206800210430fff770fd94f90400bde81040fff750bd10bd00bf0804
            0020c8030020684620f007018d4601b50348fff770febde8014085467047
            08040020684620f007018d4601b50348fff762febde8014085467047c803
            00200c4b984210d00c4b984200d000be01290cd898420cd10068343011b9
            0121fff745bd0121fff734bd0129f4d900be7047704700bf08040020c803
            002010b5064c0146236833b1054a106898470023044a2360137010bd00bf
            a4000020b4000020c10000200c4b13b50246186820f004001860586800f0
            010001900020019c0cb1884201d102b010bd145c01301c615c6804f00104
            0194f1e700600140024b1a680ab11b68184770479c00002008b5084b1b78
            63b1074b188880b2fff7bfff064b1a6842f001021a601a68d207fcd408bd
            c1000020bc00002000600140f8b57b4b5d689a68edb21540aa076fd5784c
            1b692278d8b2052a00f28b80dfe802f00365651c2f5e1b0461d5f12802d0
            fff7c6ff5ce000266f4b704a1e8011681a8892b288541a88013292b21a80
            1b889bb2ce54042323704ae01f0448d5684b1b789842e4d10023634a6449
            1380138809689bb2c854138801339bb21380e9e71e04d5d45c4e5d4b3288
            196892b20a4412f8013cf12b33460bd133889bb2c85433889bb20b4413f8
            010cfff789ff0023d1e73288534e92b23688b24206d21a8892b288541a88
            013292b21a801a8892b296420dd1188880b2fff742ffe7e71904a6d4464b
            1b6858700220f5e71a049fd4eb071ed53f4c23782546022b24d0052b40d0
            012b6ad1404d2b889bb2002b34d03e4f29883e6889b23046fff735ff2b88
            9bb2984208d22b881b1a9bb230442b803860f8bd0020cfe700232b80344b
            1b68cbb102232370f4e7314d2b68abb1314e29683068fff718ff2b689842
            06d22b681b1a2b60336818443060e2e7204a936823f0010393600323e4e7
            00bebde8f840fff726bf224c236873b9234b1b68abb12048984720602368
            33b9154a936823f00103936003232b7023685bb9104a936823f001039360
            03232b70bae700befff707fff1e7134d21682868fff7ddfe23681b1a2360
            2b6818442860aae7044a0020936823f001039360fff7bafe0023a9e70060
            0140c0000020bc000020b4000020a0000020be000020a2000020ac000020
            a8000020b0000020b80000200123420900f01f0003fa00f0014b43f82200
            704700e100e00122430900f01f0002fa00f0024a203342f82300704700bf
            00e100e003682de9f0431a68d3f818e0d3f804c09f6a1e6b5d6bdc69244b
            9842244b2dd14ff002084ff0040980f80480d3f84880204948f400780160
            c3f84880dff87c80c8f88091d3f8488028f40078c3f848800b6822f00102
            23f000430b6003681a60c3f818e0c3f804c01a6842f001021a609f621e63
            5d63dc61bde8f0834ff003084ff0080980f80480d3f848800a4948f48068
            0160c3f84880dff82080c8f88091d3f8488028f48068d0e700bfcc040020
            00800340001000400010014000e100e030b50268c46891680369cd050bd5
            a34206d39168c90503d4d0e90651a9420ad3416a71b930bda342f3d28168
            c95c013351610361e7e745696d5c01315561c161e7e7a342eed3d0e90631
            9942ead3212100e05361936813f48073e3d10139f8d1e0e713b590f88030
            0446022b0dd123689a68500601d502b010bd1a690092626f002af5d00098
            9047f1e7012b12d003689a685206efd41a690092f9e71b690193d4e90b23
            93423ebf0199a26ad154236b0133236323689a685106efd5dbe700005e4b
            73b598420446056803d05c4b984200d000be2b6a9e070bd594f88030022b
            40f0858023689a68500677d502222368da602b6ade070ad594f88030022b
            40f091802368a26f5a6101222368da602b6ad80613d52046fff7a4ff236a
            2bb1a06a216b98472046fff76bff0123636223689a6a22f010029a621022
            da602b6a59070ad522682046d36a43f00403d362fff7f7fe04222368da60
            2b6a1a0715d52268d36a43f00803d36294f88030022b5dd1136823f47f03
            23f47f4343f480731360a36f536108222368da602b6a9b0623d52046fff7
            66ff226a266b236852b10022c4e905226262e2611022da609a6a42f01002
            9a620025da6a256142f00c02da622046fff71dffe36f256313b13146a06a
            984720222368da6002b070bd1a690192626f002a3ff47faf019890477ae7
            012b13d023689a6852063ff578af1a690192f8e71b690193d4e90b239342
            3ebf0199a26ad154236b0133236323689a685106efd563e72046fff7ebfe
            6de7012ba9d1002320462361fff7e3fea3e7cc0400204804002038b5234d
            0446a84203d0224b984200d000be94f90400fff763fe84220021204601f0
            84fd012363624ff0ff33ac426363e3636364e3646365e3656366e366164b
            15d1164a04212260022222719a6c42f400729a64124ac2f880119a6c22f4
            00729a642268136823f00043136038bd0d4a08212260032222719a6c42f4
            80629a64074ac2f880119a6c22f48062e8e700bfcc040020480400200080
            03400010004000e100e000100140f8b51e46264b0546984214469df81870
            03d0244b984200d000be072900d900be202f00d900be012e01d800be02e0
            b6f5007ffad8f30700d500be95f90400fff7fbfd002385f880302b680729
            1a6822f001021a601a6842f002021a601a6842f001021a6016d834f04073
            08bf44f0505401f1060318bf44f0405405ebc30344f481745c60730805eb
            c101013b81f8387081f8393095f90400bde8f840fff7c0bdcc0400204804
            00201e4b70b5984204460d4603d01c4b984200d000be23681b689a0700d4
            00be04ebc506736b013300d100be94f90400fff7affd23689b685b0702d5
            2046fff7b6fd23681a6822f001021a60726b1a6096f839209a6196f83820
            5a601a6842f001021a600122d86902fa05f10143d96194f90400bde87040
            fff77fbd00bfcc04002048040020124b984203d0124b984200d000be0368
            1b689b0700d400be03681a6822f47f0222f47f4242f480721a60da6a42f0
            0c02da6259619a6802f00102002afad09a6802f00202002afad018697047
            cc04002048040020684620f007018d4601b50348fff722febde801408546
            7047cc040020684620f007018d4601b50348fff714febde8014085467047
            4804002070b5224c224e25684ff420746c4304f1844404f52014c4f8c431
            14236b4303f1402404f5803460603344a160dc68b2f5803f4fea14444fea
            0444dc60154c1dd9a2f5803201f5803100f580302261e160a060142303fb
            0563da6842f4e002da604ff4207301226b4303f1844303f52013c3f8c021
            0022c3f8cc2170bdd96892b20a43da6000232361e3e700bfc80000200040
            0140cc000020684620f007018d4619b50124214a224b116801f5287043f8
            204014234b4303f1402303f58033d868032920f4e000d860134608bf0022
            01eb0400184914bf10601a600a6908467ab115490b68042b0cbf00230133
            0b60037dc1688068fff784ffbde819408546704714221868424302f14022
            02f58032d26812f4e002f0d101201a60074b08701a604b68002be8d09847
            e6e700bfc400002000002842cc000020c8000020684620f007018d4619b5
            244b1b6813f4706f22d04ff42073214c21684b4303f1844303f52013d3f8
            08322bb102201d4b18705b6803b198474ff420732268534303f1844303f5
            2013d3f80c322bb10320144b18705b6803b19847104b1b6813f4704f05d0
            04200f4b18705b6803b1984701220d4bc3f8c821c3f8802ac3f84824c3f8
            842ac3f8c826c3f8882ac3f84829c3f88c2abde819408546704700400140
            c4000020cc0000200000284210b500210124134b13489a6c42f480129a64
            9a6c42f0f0729a6410f9013b013103f01f025b099b0003f1604304fa02f2
            03f561432029c3f88020c3f88021ecd1044b9a6c22f0f0729a649a6c22f4
            80129a6410bd00800340683500001f2801d900be7047024b53f820301960
            704700bfe83400001f2810b501d900be10bd0122064c8240d4f8883001f0
            010123ea020301fa00f01843c4f88800efe7003001401f2801d900be7047
            094b53f82020136843f0080313600122064b1b56590903f01f0302fa03f3
            044a42f82130704700bfe83400006835000000e100e01f2803d900bebff3
            4f8f7047012303fa00f0024bc3f88000f5e700bf003001400278c178c2f3
            40039b07006843eac27343ea5113920843ea0263c0f3142043eac0007047
            38b5054608461446fff7e8ff0146286804f0f704204340f40070bde83840
            fef709bf002330b585b004460193adf80d308df80f30012302ad28460291
            8df80c2001a94ff480628df80430fff7d9ff95e8030084e80300204605b0
            30bd006810b441ea03042043114610bcfef7e3be006801f0f701084308b5
            40f08000fef7dcfe80b208bd006801f0f701084340f48070fef7d2be0068
            01f0f701084340f4c070fef7cabe0121064b1b565a0903f01f0301fa03f3
            0349603241f82230704700bf8835000000e100e001210c20fff742bf0021
            0c20fff73ebf37b502ab03e903009df804500a4c28460021fff733ff0521
            2046fff7bbfd00212046fff7b7fd012104462846fff726ffe0b203b030bd
            00bfcc04002037b5044602ab03e906009df8045000212846fff715ff2146
            0448fff79dfd28460121fff70dff002003b030bdcc0400202de9f3416c46
            1f460e4684e80c00054694e806000620ffb2fff7daff00213846fff7f6fe
            12211748fff77efd310e1548fff77afdc6f307411248fff775fdc6f30721
            1048fff770fdf1b20e48fff76cfddff830806e1e05f2ff1516f8011f4046
            fff762fdae42f8d138460121fff7d0fe94e806000420fff7abff4ff40070
            02b0bde8f081cc040020f7b50d4602a901e90c009df80460044600213046
            fff7b8fe13211448fff740fd290e1248fff73cfdc5f307410f48fff737fd
            c5f307210d48fff732fde9b20b48fff72efd094f651e04f2ff1400213846
            fff726fd05f8010fa542f7d130460121fff792fe002003b0f0bd00bfcc04
            002070b50024adf5027d6e4605464ff4fe72214603a8029401f0b7f91d4b
            33601c23736096e80c00610202a8fff7b1ff002302aa52f8041b01310fd1
            03b1013b82aa02eb83036ff40072a3f500731b68a3f5007191420bd20122
            0fe00133802be8d10134b4f5007fdcd10024234604e05a1c04bf00244ff4
            007300222846c5e90023ab601c236c61c5e903330df5027d70bdcc040020
            13b56c4684e8030094e80300fff7fcfec307f9d402b010bd70b5adf5826d
            00256c464ff4fe7284e80300294605a8049504ae01f05ff94ff4fe722946
            85a8849501f058f9334603f8015b0135b5f5007ff9d194e80c00012104a8
            fff70bff94e80300fff7cdff94e80c00012184a8fff745ff002284ab16f8
            010b13f8011b884209d094e80300fff7bffe8df80f0000200df5826d70bd
            0132b2f5007febd194e80300fff7adff0120f2e713b56c4684e803000620
            94e80600fff7c4fe94e80600c720fff7bffe94e806000420fff7bafe94e8
            0300fff794ff002002b010bd000030b5054685b00c200c460021fff7cafd
            2b48fff769fb002208231146284800930423fff7b5fb01211c20fff7bbfd
            01211d20fff7b7fd00212148fff7fdfb0422204b4ff00041c3f884201f48
            c3f88421fef718fd4ff4fa711c48fef713fd4cf250311b48fef70efd1a49
            1948fef70afd00231946184a0133b3f5007f02f8011bf9d1012d0ed10e4b
            02ad02931c23039395e80300fff799ff1d23039395e80300fff793ff0422
            074b012c5a6006d121460c2005b0bde83040fff774bd05b030bdcc040020
            00e100e038000050400000504400005020bcbe00ec0000202de9f8430546
            2c4817460e46fef7cefc0743002d4dd0294c23687bb97f232b70274b5a88
            6a701a68120aaa701a68ea702268013222601a6801321a602148fef7b5fc
            4ff0040823685a1c226045f82300306048f0a0494846fef7a8fc46f80800
            236800215a1c226008f1040845f823004846fef799fcb8f1340fead12368
            12485a1c226045f823707763fef78ffc236800215a1c226045f82300b063
            0948fef783fc00210848fef77ffc00210248fef77bfc3846bde8f8833400
            0050ec020020e4000020480000504c000050f0b514460e4685b001ad85e8
            0c00029f95e806000390ffb20620fff7cffd38460021fff7ebfc12212046
            fff773fb310e2046fff76ffbc6f307412046fff76afbc6f307212046fff7
            65fbf1b22046fff761fb9df80c102046fff75cfb9df80d102046fff757fb
            9df80e102046fff752fb9df80f102046fff74dfb38460121fff7bdfc95e8
            06000420fff798fd05b0f0bd2de9f041adf5027d6c460d460021064684e8
            0c0003a84ff4fe72029100f0deffb5f5007f08d394e80300fff75dfe4046
            0df5027dbde8f0816f0294e80c00394602a8fff7cffd002002ab19460a68
            0433013204d001308028f7d10135e0e70e6094e80c0007eb80013046fff7
            81ffa846d9e7000038b50e4d0e4c2978c1f140022144fef77bfe2b781844
            c0b2022828700dd9204410f8023c172b08d110f8013cf02b01bf044a1368
            43f40043136038bd30030020f0020020bc03002010b5094c032220464ff4
            6121fef7defd20460021fef7d6fe2046bde8104000220249fef781be00bf
            08040020191d00001c232de9f04f0025adf50d7d0293874b4ff4fe722946
            0da801930c9500f068ff834b01ac1a789b46002a3ed0814e33681b043ad5
            804a1378132b00f0e78010d8022b76d0112b00f0c780012b31d08df81830
            00238df81930adf81a30774b0793e1e0202b00f09f80aa2bf0d194e80300
            fff719fe1d23636094e80300fff713fe6f4a06ab10685168082203c36d48
            06a9fef7a8fd336843f48033336000238bf80030336823f4004333600df5
            0d7dbde8f08f654b6348069348238df81c30634b06a91a889b78adf80c20
            05228df80e304ff48025fef786fd5a4fdff880811c23636094e80c002946
            0ca8fff705fd4ff4007238460ca9fef775fd1d23636094e80c0029460ca8
            fff7f7fc4ff4007238460ca9fef767fd4e4b05f50075c3f80c804c4b9d42
            dbd1032203a94648fef75afdb4e7494bd2f8018018689a889b79dff80491
            dff80ca198fa88f80690adf81c208df81e30a84502d1072206a9e5e71c23
            6f02636007f5802794e80c0039460ca8fff7c2fc4ff4007248460ca9fef7
            32fd1d23636094e80c0039460ca8fff7b4fc4ff4007248460ca9fef724fd
            2f4b0135caf80c30d6e794e80300fff733fd1d236360450094e80300fff7
            2cfd0446284a06ab10685168edb203c3127a25431a708df81d500922c0e7
            224a03ab1068516803c39068186006a8fff7befc089b1a0e8df811201a0c
            8df812201a0a8df813200c228df814300deb02018ee7164a06ab10685168
            03c394e8030000f0b0fa10b901238df81d30082297e700bfcc0400203003
            0020bc030020f002002000f017f0c035000008040020010001e897350000
            005000400090d0039b35000042de15aca3350000ac350000b83500002de9
            f0410e4f0446fff7acfb3b68a3b10c4d4ff4006105ebc4052846fff792fb
            4ff4806106462846fff794fb314602463b682046bde8f0411847bde8f081
            00bf64030020340300202de9f04f14461d4607460e46dff8fca246ea0716
            45ea04150027544687b005210320fff7c7fa01210320fff7cffa142000f0
            04fab34b45f400550193b24b46f4304645f032050093009b0df1080813f8
            012b40460093019b4ff0000953f8041b0193fff71afb98e80300a84b4ff6
            067203ebc70383e80300002370212046fff729fb012000f0daf900234ff6
            167270212046fff71ffb4ff4006344f2012230212046fff717fb00233246
            30212046fff711fb4ff003084ff4006342f2012210212046fff707fb0023
            4ff6ff7210212046fff700fb00212046fff705fb86420ad00121384608f1
            ff3800f02efa18f0ff084ff00109dfd14ff003084ff4006342f201222021
            2046fff7e5fa00234ff6ff7220212046fff7defa00212046fff7e3fa8642
            0ad00221384608f1ff3800f00cfa18f0ff084ff00109dfd14ff4006344f2
            030240212046fff7c5fa4ff400634ff4206240212046fff7bdfa00232a46
            40212046fff7b7fa4ff4006344f6012240212046fff7affa002340f20362
            40212046fff7a8fa4ff0030b4ff4006342f2010240212046fff79efa0023
            4ff6ff7240212046fff797fa00212046fff79cfab0f5206f69d003213846
            00f0c6f90bf1ff3b1bf0ff0be0d1206840f4c070fef770f900f4007050ea
            09092bd14ff47a7000f02df94b464ff6607210212046fff772fa4ff4fa70
            00f022f94b464ff6607220212046fff767fa4ff4fa7000f017f94b464ff6
            607240212046fff75cfa4ff4fa7000f00cf94b464ff6147270212046fff7
            51fa374b374a0137062fda6004f108047ff402af002400210320fff7bff9
            059b03f0604343f0420305939df81730504664f34713002205a901348df8
            1730fff703fa062c0af1080aefd101210320fff7a5f907b0bde8f08f4ff4
            006342f2012240212046fff71efa00234ff6ff7240212046fff717fa0021
            2046fff71cfa4ff4006342f601224021c0f30e082046fff709fa00234ff6
            ff7240212046fff702fa00212046fff707fac0f30b0085ea080880f4c060
            4fea084880f0030050ea08033ff469af0321384600f026f94ff001095ce7
            00bfc8350000e0350000340300200050004042de15ac0120fff74dbe0220
            fff74abe0320fff747be0420fff744be0520fff741be0620fff73ebe10b5
            064c4ff4964120460322fef7cefa2046bde810400021fef7c4bbc8030020
            07b501228df807000df107010348fef7e1fa002003b05df804fb00bfc803
            0020074a1368013b136013b90122054b1a604ff0402301221a61bff34f8f
            704700bfa8030020a4030020094a1368013b13603bb908490b6843f00803
            0b60064b1b6813604ff0402301229a62bff34f8f7047ac030020bc030020
            b0030020124b30b51860124b124918604ff40040114ac1f88000936c4ff0
            402423f04003936400220d4b6265c3f88024c3f88824c3f8842401220a4d
            a262c1f88001e561c3f888240860c3f8802430bdb0030020ac03002000e1
            00e00080034000000842a0860100002270b54ff48044154b1649164d0a60
            18601648164ec0f88040ab6c23f04003ab644ff04025134b6a65c3f88021
            c3f88821c3f8842101222a61c0f880416e60c3f8882104600c480c4cc3f8
            80210a681ab10022c3f8802170bdc460f7e700bfa8030020a40300200080
            034000e100e0a0860100000008420050004042de15ac0244904200d17047
            00f8011bf9e72de9f041adf5027d00256c464ff4fe7284e80300294603a8
            0295012600f0a9fb0df1080894e80c0000213046fff7b3fb074694e80300
            fff722fa94e80c00394602a8fff79af958f8043b4ff40072b3424ff00001
            02a806f1010618bf0135fff7c8ff412eded128460df5027dbde8f0810000
            01460148fef726ba0804002030b50d46002191b004463c2201a8009100f0
            70fb022d09d922466846074900f071fb6846fff7e6ff11b030bd2b462246
            6846034900f066fbf3e700bfe6350000fe35000010b10244904200d17047
            00f8011bf9e70a4a0346116809b9094911601068eff308818842034402d2
            994204d2fee705498b4200d9fee71360704700bfb40300206005002000f0
            0020074b084a1860084b1860084b1860084b1a60084b1860084b1860084b
            186070470000002040787d01100000201400002018000020040000200800
            00200c0000204ff602020b4bd3f84c1191420bd1d3f8982042f48072c3f8
            9820d3f8982022f08062c3f89820044a536943f400735361fdf7d4be0080
            034000ed00e01d4b82b0d3f8982051012cd4d3f89820d20412d4194b1a4a
            1a4913601a4a13601a4a13601a4a11601a4a1b4911601b4a13601b4a1360
            02b070476a4619490868496803c2d3f89c2002a9c2f382120a4412f8082c
            3ab1012a0cbf4ff40040124802b0fff78fbfd3f85031064813f0040f094b
            18bf1846f3e70080034000e1f5050000002040787d011000002014000020
            180000200400002080f0fa02080000200c0000201836000040420f002de9
            f04fc04c012162698db022f0030262610322e261bd4ac2f880112168a268
            91423cbfba4be360fef718fffff7f8fa0120fff785fefff703fe636943f0
            01036361b44bd3f89c212ab10122b248c3f89c21fff7f5fe0024b04b0521
            c3f888400420fef729ff05211e20fef725ff05211f20fef721ff05211920
            fef71dff05211a20fef719ff05211c20fef715ff05211d20fef711ff0521
            0c20fef70dff20468221fef709ff82210220fef705ff82210120fef701ff
            2046fef720ff0220fef71dff0120fef71aff01211920fef700ff01211a20
            fef7fcfe21460420fef7f8fe0120fff72dfe01210420fef7f1fe21462046
            fff71bf906a8fff75ef8dde90874dde90a56069b23b91c251e462c464ff4
            00770821022304220620fff7f3fb1c224ff0000a7e4b4ff47a70cde90432
            02930394fff7d3fd7b48fff782fedff8fc9100211920fef7c4fe0123d046
            cb46764c0193754803685a010fd5744a23f08063116843f0020341f08061
            11601168dbf8342003600a43cbf834202368d9050ed56a4a23f480731168
            236021f080611160dbf83430126823ea0203cbf8343023681a0110d5614a
            23f000632360136843f000631360fef746ff1e200121fef788fe0120fff7
            bdfd236818061cd5574a23f080032360136823f000631360fef736ff0021
            1e20fef774fe04ab93e80300fff72df804ab31460ccb3846fff7b3f90646
            0120fff79dfd2368190401d5fff720fa23689a0007d5454923f000530a68
            236042f000520a602368980507d53f4923f400730a68236022f000520a60
            236803f00503042b1ad1b6f5007f13d204ab93e80300fef7fbff04ab3146
            0ccb3846fff781f99df8041006461920fef731fe019bdb430193236823f0
            040323602368d90306d51c254ff4007723f48033039523602268274b1340
            bbb102ab93e80300fef7d5ff02ab234879020ccbfef709ff1d2d57d11c25
            0137039523681f4a23f00103236013680133136023689a0738d543463b2b
            08f1010809d819f8010bfff7c0fc2368012bf3d1b8f13a0f29d94ff00008
            3c2200211148fff7cbfd2368dff83c9023f0020323601be00050004000e1
            00e042de15ac008003402036000000300140cc04002034360000bc030020
            b803002001001000ec000020e40000206803002023681b0709d58af0010a
            51461f20fef7bffd236823f008032360044b044ada60f7e61c2da8d11d25
            a5e700bf0050004042de15ac38b52c4b2c491a682c48fff743f804462b48
            fdf715fd002c054611da294a136843f480131360bff34f8f2749274bca68
            02f4e0621343cb60bff34f8f00bffde762000dd5224a1368013313f00701
            13601ad11c4a136843f0010313601d4b1960e30003d500211c48fdf7e8fc
            144845f00051fdf7e3fc00211748fdf7dffc0422164bc3f8842138bd2820
            b3fbf0f100fb113129b90b4a136843f002031360dfe7b3f57a7fdcd30749
            0b6843f004030b600123f3e7b803002068030020ec00002038000050bc03
            002000ed00e00400fa05e8000020ec0200203400005000e100e0074b084a
            d3f884101368c9074cbf43f4007343f0005300201360fef763bd00bf0030
            0140bc030020074b084ad3f88410136849074cbf43f0840343f000630220
            1360fef74fbd00bf00300140bc030020074b084ad3f88410136889074cbf
            43f4827343f0806301201360fef73bbd00bf00300140bc0300200122024b
            da61da61704700bf0050004070b500260c4d0d4c641ba410a64209d100f0
            22fd00260a4d0a4c641ba410a64205d170bd55f8043b98470136eee755f8
            043b98470136f2e78c3600008c3600008c360000903600000a44914200f1
            ff3300d1704710b511f8014b914203f8014ff9d110bd03460244934200d1
            704703f8011bf9e70eb46ff0004100b59cb01dab02900690079104910848
            094953f8042b0591006802a9019300f068f80022029b1a701cb05df804eb
            03b070471c0000200802ffff2de9f0478e6882469e420c4690461f4638d8
            8a8912f4906f32d0256809690133a5eb010965694b4405eb450505ebd575
            6d109d4238bf1d46530531d5294600f045fb064650b90c234ff0ff30caf8
            0030a38943f04003a381bde8f0874a462169fff798ffa38923f4906343f0
            8003a38126614e4426603e466561a5eb0905a560be4200d93e4632464146
            206800f0b8faa36822689b1b32440020a3602260dbe72a4600f06dfb0646
            0028e1d15046216900f0c0fac7e700002de9f04f98468b8907461b060d46
            14469db00ed50b6963b9402100f0fbfa2860286120b90c233b604ff0ff30
            d1e040236b610023099320238df8293030234ff00109cdf80c80dff8a481
            8df82a3023469a4613f8012b0ab1252af9d1baeb040b0bd05b4622462946
            3846fff76dff013000f0aa80099a5a4409929af80030002b00f0a2800023
            4ff0ff32cde905230af1010a049307938df853301a935446052214f8011b
            514800f041fa049ad8b9d00644bf20238df85330110744bf2b238df85330
            9af800302a2b15d0544600204ff00a0c079a214611f8013b303b092b4ed9
            b0b1079214e0a0eb080309fa03f31343a2460493d2e7039b191d1b680391
            002bbbbf5b4242f0020207930793b8bf049223782e2b0cd163782a2b35d1
            039b02341a1d1b680392002bb8bf4ff0ff330593dff8c8a0032250462178
            00f0f7f940b14023a0eb0a0003fa00f0049b01340343049314f8011b0622
            25488df8281000f0e5f9002838d0234b1bbb039b073323f0070308330393
            099b3344099367e70c4601200cfb0232a5e700234ff00a0c194601340593
            204610f8012b303a092a03d9002bc5d00591c3e7044601230cfb0121f0e7
            03ab00932a4638460f4b04a9aff30080421c0646d6d1ab895b063ff52caf
            09981db0bde8f08f03ab00932a463846054b04a900f07cf8ebe700bf4036
            00004a36000000000000d12c0000463600002de9f047164699468a680b69
            07469342b8bf1346336091f843200c46ddf820800ab10133336023689906
            42bf336802333360256815f0060506d104f1190ae36832689b1aab4228dc
            94f84320131e226818bf012392062dd44946384604f14302c047013020d0
            2368e56803f00603042b18bf002532684ff00006a36808bfad1a226908bf
            25eae5759342c4bf9b1aed181a34b5421ad1002008e00123524649463846
            c047013003d14ff0ff30bde8f0870135c4e73020e11881f843005a1c94f8
            45102244023382f84310c5e70123224649463846c0470130e6d00136d9e7
            00002de9ff470c46277e9146782f80469a460c9904f1430207d8622f0ad8
            002f00f0d980582f00f0a48004f1420684f842703ae0a7f16303152bf6d8
            01a050f823f0013100001531000091300000913000009130000091300000
            153100009130000091300000913000009130000023320000453100000532
            000091300000913000004532000091300000453100009130000091300000
            0d3200000b6804f142061a1d1b680a6084f842300123a4e0256808682e06
            00f104030ad505680b60002d03da2d236d4284f843300a235e4819e015f0
            400f05680b6018bf2db2efe70b682568181d0860280601d51d6802e06906
            fbd51d886f2f0cbf08230a235248002184f843106668002ea8bf2168a660
            a4bf21f0040121600db9002e4dd01646b5fbf3f103fb1157c75d06f8017d
            2f46bb420d46f4d9082b0bd12368df0708d5236961689942debf302306f8
            013c06f1ff36921b22614b4621464046cdf800a003aafff7dffe01304cd1
            4ff0ff3004b0bde8f087344884f845700e68236856f8045b1f060e6014d5
            d90744bf43f0200323601db9236823f0200323601023afe7236843f02003
            23607823284884f84530e3e75e0648bfadb2e6e71646bbe70b6826681d1d
            60690d6035061b6801d5186002e07106fbd51880002316462361bae70b68
            1a1d0a601e6800213046626800f02ff808b1801b606063682361002384f8
            4330a8e73246494640462369d0470130abd023689b0713d4e068039b9842
            b8bf1846a4e70123324649464046d04701309bd00135e36803995b1aab42
            f2dcebe7002504f11906f5e75136000062360000034610b5c9b202449342
            184601d1002003e0047801338c42f6d110bd884210b501eb020402d98442
            234607d8431ea14208d011f8012b03f8012ff8e7014602448a4200d110bd
            13f8014d02f8014df7e738b50546002943d051f8043c0c1f002bb8bfe418
            00f0d0f81e4a1368104633b9636014602846bde8384000f0cbb8a3420ad9
            21686218934201bf1a685b685218226063600460ede71a465b680bb1a342
            fad911685018a0420bd120680144501883421160ded118685b6801441160
            5360d8e702d90c232b60d4e7206821188b4201bf19685b68091821606360
            5460c9e738bd00bfc0030020f8b5cd1c25f0030508350c2d38bf0c25002d
            064601dba94203d90c2333600020f8bd00f07df821490a6814469cb9204f
            3b6823b92146304600f062f838602946304600f05df8431c23d10c233046
            336000f06cf8e3e723685b1b17d40b2b03d923601c44256004e06368a242
            0cbf0b605360304600f05af804f10b00231d20f00700c21accd01b1aa350
            c9e722466468cce7c41c24f00304a042e3d0211a304600f02ef80130ddd1
            cfe700bfc0030020c4030020f8b5074614460e4621b91146bde8f840fff7
            9cbf22b9fff74dff25462846f8bd00f030f8a0420fd221463846fff78eff
            05460028f2d031462246fff7ebfb31463846fff737ffe9e73546e7e738b5
            0023054d044608462b60fff79af8431c02d12b6803b1236038bd50050020
            014800f011b800bf58050020014800f00cb800bf5805002051f8043c181f
            002bbcbf0b58c0187047704770470030014004300140083001400c300140
            1030014014300140183001401c3001402030014024300140283001402c30
            01403030014034300140383001403c300140403001404430014048300140
            4c3001405030014054300140583001405c30014060300140643001406830
            01406c3001407030014074300140783001407c3001403233343536373839
            3a3b3c3d3e3f404142434445464748494a4b4c4d4e4f5051222324252627
            28292a2c2d2e2f30310f17f00002ffffffff17f0002000000001000f17f0
            1100000001000000000f17f013000000000017f0aa000000000f17f00010
            005000200050003000500040005000500050006000500102030405065354
            414d502025642054454d50206d69736d617463680a005354414d50202564
            20534752202564204d69736d617463680a00000100010202030357617463
            68646f672074696d6564206f75740a00496e697420444f4e45210a00232d
            302b2000686c4c0065666745464700303132333435363738394142434445
            4600303132333435363738396162636465660000f8b500bff8bc08bc9e46
            7047f8b500bff8bc08bc9e467047d5040000b10400000000000000000000
            0000000000e1f50580f0fa0200e1f50500e1f50500e1f50500e1f5054078
            7d0120000020000000000000000000000000000000000000000000000000
            000000000000000000000000000000000000000000000000000000000000
            000000000000000000000000000000000000000000000000000000000000
            000000000000000000000000
            <crc>
                735b
            </crc>
        </region>
        <region name="SPU_Conf" address="0x03e800" retrieveAddressFromFile="false" size="320" format="HEX" type="Data Storage" wordSize="8" numberWords="320" memFile="C:\Users\RG\Documents\MicroController" memType="" memFileTimeStamp="1641481222" clientType="public" program="true">
            <fabric_accessible/>
            <mss_accessible/>
            000000000000000000000000000000000000000000000000000000000000
            000000000000000000000000000000000000000000000000000000000000
            000000000000000000000000000000000000000000000000000000000000
            000000000000000000000000000000000000000000000000000000000000
            000000000000000000000000000000000000000000000000000000000000
            000000000000000000000000000000000000000000000000000000000000
            000000000000000000000000000000000000000000000000000000000000
            000000000000000000000000000000000000000000000000000000000000
            000000000000000000000000000000000000000000000000000000000000
            000000000000000000000000000000000000000000000000000000000000
            0000000000000000000000000000000000000000
            <crc>
                0000
            </crc>
        </region>
    </nvm>
</Actel_Data_File>
